time (s)	det(V)
2830.125422	0.057256	
2830.126914	0.060635	
2830.128451	0.063076	
2830.129935	0.065389	
2830.131466	0.067576	
2830.132957	0.069469	
2830.134486	0.072664	
2830.136009	0.075512	
2830.137521	0.078090	
2830.139043	0.080056	
2830.140520	0.083786	
2830.142068	0.086300	
2830.143554	0.090018	
2830.145098	0.092334	
2830.146581	0.095702	
2830.148141	0.099122	
2830.149626	0.101571	
2830.151157	0.104657	
2830.152662	0.107477	
2830.154186	0.109898	
2830.155695	0.112488	
2830.157184	0.115457	
2830.158720	0.118337	
2830.160212	0.120484	
2830.161760	0.123952	
2830.163260	0.125834	
2830.164802	0.128541	
2830.166302	0.130124	
2830.167818	0.132545	
2830.169333	0.134756	
2830.170848	0.136762	
2830.172363	0.138442	
2830.173844	0.140267	
2830.175397	0.141685	
2830.176882	0.143639	
2830.178422	0.145282	
2830.179903	0.146249	
2830.181436	0.147417	
2830.182922	0.147055	
2830.184456	0.148529	
2830.185958	0.149029	
2830.187480	0.149254	
2830.188995	0.149826	
2830.190485	0.150116	
2830.192029	0.151188	
2830.193518	0.150439	
2830.195067	0.150733	
2830.196553	0.150088	
2830.198089	0.150483	
2830.199585	0.150076	
2830.201113	0.150008	
2830.202638	0.149423	
2830.204159	0.148843	
2830.205683	0.147482	
2830.207165	0.148428	
2830.208697	0.148537	
2830.210185	0.148018	
2830.211719	0.147292	
2830.213208	0.147570	
2830.214746	0.147168	
2830.216240	0.147417	
2830.217781	0.147373	
2830.219291	0.147381	
2830.220812	0.147357	
2830.222326	0.147760	
2830.223816	0.148654	
2830.225360	0.150209	
2830.226851	0.150467	
2830.228405	0.152118	
2830.229893	0.153105	
2830.231439	0.154668	
2830.232935	0.156002	
2830.234463	0.157887	
2830.235968	0.160143	
2830.237487	0.161702	
2830.238998	0.163804	
2830.240478	0.166395	
2830.242034	0.170012	
2830.243524	0.173199	
2830.245066	0.175805	
2830.246553	0.179318	
2830.248093	0.182146	
2830.249584	0.185932	
2830.251102	0.189944	
2830.252620	0.193340	
2830.254137	0.197570	
2830.255658	0.201481	
2830.257137	0.207161	
2830.258685	0.210646	
2830.260176	0.215371	
2830.261717	0.220056	
2830.263201	0.224483	
2830.264738	0.229482	
2830.266229	0.233603	
2830.267757	0.238147	
2830.269268	0.242647	
2830.270790	0.247082	
2830.272301	0.251312	
2830.273779	0.255892	
2830.275317	0.260468	
2830.276804	0.265439	
2830.278357	0.268811	
2830.279847	0.272545	
2830.281384	0.276593	
2830.282878	0.279071	
2830.284402	0.283510	
2830.285921	0.285984	
2830.287441	0.288807	
2830.288961	0.290958	
2830.290445	0.293754	
2830.291998	0.295877	
2830.293504	0.297835	
2830.294993	0.298616	
2830.296552	0.299362	
2830.298049	0.300304	
2830.299583	0.300727	
2830.301097	0.300969	
2830.302646	0.299853	
2830.304142	0.299696	
2830.305665	0.298089	
2830.307158	0.297368	
2830.308686	0.296300	
2830.310190	0.294342	
2830.311705	0.292296	
2830.313232	0.289258	
2830.314720	0.286531	
2830.316263	0.283111	
2830.317772	0.279659	
2830.319313	0.276710	
2830.320790	0.272956	
2830.322329	0.269238	
2830.323811	0.266370	
2830.325340	0.262736	
2830.326830	0.258200	
2830.328351	0.254124	
2830.329865	0.250083	
2830.331353	0.246325	
2830.332898	0.241704	
2830.334388	0.238558	
2830.335928	0.233777	
2830.337417	0.230453	
2830.338942	0.225736	
2830.340430	0.222562	
2830.341944	0.219347	
2830.343444	0.216386	
2830.344968	0.212318	
2830.346475	0.209421	
2830.347995	0.206662	
2830.349510	0.203020	
2830.350995	0.200547	
2830.352558	0.196772	
2830.354049	0.194972	
2830.355583	0.192313	
2830.357063	0.191217	
2830.358603	0.189489	
2830.360088	0.187572	
2830.361620	0.187012	
2830.363117	0.184768	
2830.364635	0.184043	
2830.366149	0.182270	
2830.367641	0.182327	
2830.369192	0.181014	
2830.370685	0.180160	
2830.372239	0.179712	
2830.373728	0.179978	
2830.375270	0.179386	
2830.376755	0.180651	
2830.378279	0.179237	
2830.379777	0.179221	
2830.381306	0.179108	
2830.382824	0.178729	
2830.384305	0.179668	
2830.385852	0.178500	
2830.387334	0.177336	
2830.388878	0.176905	
2830.390365	0.177195	
2830.391904	0.177231	
2830.393385	0.177267	
2830.394909	0.176341	
2830.396400	0.175213	
2830.397932	0.174463	
2830.399446	0.172582	
2830.400957	0.172268	
2830.402477	0.169718	
2830.403982	0.167845	
2830.405511	0.165984	
2830.406993	0.163809	
2830.408545	0.162294	
2830.410032	0.159430	
2830.411569	0.156316	
2830.413055	0.153339	
2830.414587	0.149504	
2830.416091	0.145705	
2830.417619	0.142636	
2830.419134	0.137737	
2830.420636	0.133012	
2830.422160	0.128593	
2830.423644	0.123276	
2830.425183	0.118981	
2830.426670	0.113459	
2830.428221	0.108923	
2830.429710	0.102046	
2830.431240	0.096959	
2830.432758	0.090783	
2830.434270	0.084036	
2830.435786	0.077071	
2830.437283	0.071028	
2830.438811	0.064059	
2830.440297	0.057545	
2830.441843	0.051519	
2830.443331	0.044872	
2830.444877	0.038081	
2830.446361	0.031817	
2830.447892	0.025561	
2830.449395	0.018386	
2830.450918	0.012698	
2830.452428	0.006273	
2830.453929	-0.000914	
2830.455457	-0.009119	
2830.456953	-0.015001	
2830.458499	-0.020358	
2830.459990	-0.025317	
2830.461543	-0.030505	
2830.463038	-0.034981	
2830.464558	-0.039557	
2830.466074	-0.043654	
2830.467589	-0.047106	
2830.469106	-0.051211	
2830.470600	-0.055252	
2830.472144	-0.058168	
2830.473625	-0.061185	
2830.475160	-0.063409	
2830.476644	-0.066096	
2830.478183	-0.068327	
2830.479669	-0.070096	
2830.481197	-0.071530	
2830.482708	-0.073322	
2830.484228	-0.074430	
2830.485736	-0.076666	
2830.487232	-0.077673	
2830.488776	-0.078918	
2830.490270	-0.079881	
2830.491815	-0.080928	
2830.493308	-0.081572	
2830.494856	-0.082612	
2830.496349	-0.083853	
2830.497881	-0.084030	
2830.499402	-0.085496	
2830.500918	-0.086056	
2830.502440	-0.087982	
2830.503935	-0.088997	
2830.505467	-0.090314	
2830.506952	-0.091990	
2830.508497	-0.093146	
2830.509980	-0.095019	
2830.511527	-0.096751	
2830.513014	-0.098802	
2830.514555	-0.100751	
2830.516060	-0.103128	
2830.517579	-0.105517	
2830.519085	-0.109159	
2830.520582	-0.112498	
2830.522118	-0.115745	
2830.523613	-0.118891	
2830.525160	-0.122323	
2830.526653	-0.125662	
2830.528188	-0.129973	
2830.529679	-0.133767	
2830.531214	-0.138033	
2830.532725	-0.142340	
2830.534249	-0.146553	
2830.535766	-0.151629	
2830.537266	-0.156548	
2830.538789	-0.161293	
2830.540276	-0.166288	
2830.541817	-0.170731	
2830.543303	-0.176270	
2830.544840	-0.181426	
2830.546326	-0.187066	
2830.547862	-0.192182	
2830.549379	-0.197794	
2830.550894	-0.203159	
2830.552419	-0.209939	
2830.553905	-0.216783	
2830.555443	-0.222612	
2830.556930	-0.228566	
2830.558477	-0.233775	
2830.559963	-0.239180	
2830.561511	-0.244715	
2830.562996	-0.250117	
2830.564534	-0.255201	
2830.566036	-0.260245	
2830.567559	-0.264551	
2830.569069	-0.270247	
2830.570553	-0.274416	
2830.572087	-0.278163	
2830.573575	-0.282114	
2830.575111	-0.285526	
2830.576599	-0.288495	
2830.578144	-0.291549	
2830.579635	-0.294207	
2830.581155	-0.296121	
2830.582667	-0.297994	
2830.584184	-0.299074	
2830.585704	-0.300568	
2830.587183	-0.301325	
2830.588732	-0.301265	
2830.590213	-0.301342	
2830.591747	-0.300073	
2830.593234	-0.299783	
2830.594778	-0.297829	
2830.596266	-0.296572	
2830.597798	-0.294171	
2830.599301	-0.291778	
2830.600820	-0.289301	
2830.602336	-0.287347	
2830.603819	-0.284004	
2830.605351	-0.280846	
2830.606865	-0.277490	
2830.608352	-0.273840	
2830.609923	-0.269751	
2830.611408	-0.266239	
2830.612933	-0.262106	
2830.614438	-0.258134	
2830.615989	-0.254573	
2830.617470	-0.250460	
2830.619012	-0.246846	
2830.620495	-0.243491	
2830.622030	-0.239434	
2830.623522	-0.236421	
2830.625048	-0.231998	
2830.626563	-0.228900	
2830.628051	-0.225069	
2830.629594	-0.222370	
2830.631102	-0.219019	
2830.632645	-0.216457	
2830.634133	-0.213363	
2830.635682	-0.211333	
2830.637179	-0.209133	
2830.638701	-0.207063	
2830.640208	-0.205484	
2830.641731	-0.203566	
2830.643255	-0.202043	
2830.644736	-0.201125	
2830.646278	-0.200472	
2830.647786	-0.199538	
2830.649336	-0.199473	
2830.650813	-0.198865	
2830.652356	-0.199147	
2830.653840	-0.199683	
2830.655374	-0.199570	
2830.656868	-0.200360	
2830.658391	-0.200210	
2830.659887	-0.200875	
2830.661407	-0.201645	
2830.662909	-0.202773	
2830.664437	-0.203393	
2830.665965	-0.204767	
2830.667450	-0.205625	
2830.668998	-0.207268	
2830.670490	-0.208759	
2830.672026	-0.209701	
2830.673517	-0.211305	
2830.675037	-0.212070	
2830.676548	-0.213367	
2830.678071	-0.214531	
2830.679574	-0.215107	
2830.681087	-0.215961	
2830.682613	-0.217359	
2830.684099	-0.217685	
2830.685651	-0.219120	
2830.687127	-0.219615	
2830.688668	-0.219510	
2830.690158	-0.219700	
2830.691700	-0.219035	
2830.693199	-0.219067	
2830.694728	-0.218435	
2830.696240	-0.217516	
2830.697746	-0.215873	
2830.699288	-0.215413	
2830.700803	-0.213996	
2830.702319	-0.212722	
2830.703798	-0.210616	
2830.705345	-0.208884	
2830.706835	-0.206652	
2830.708378	-0.203498	
2830.709869	-0.201459	
2830.711409	-0.198305	
2830.712895	-0.195707	
2830.714426	-0.192162	
2830.715929	-0.189241	
2830.717446	-0.185672	
2830.718960	-0.182127	
2830.720441	-0.178893	
2830.721981	-0.174744	
2830.723469	-0.171013	
2830.725006	-0.166574	
2830.726489	-0.163013	
2830.728023	-0.158671	
2830.729511	-0.154691	
2830.731027	-0.150070	
2830.732548	-0.146255	
2830.734055	-0.141760	
2830.735580	-0.138601	
2830.737062	-0.134561	
2830.738609	-0.130098	
2830.740092	-0.125904	
2830.741633	-0.121574	
2830.743118	-0.118186	
2830.744654	-0.114270	
2830.746155	-0.110218	
2830.747686	-0.106065	
2830.749200	-0.102810	
2830.750723	-0.099035	
2830.752238	-0.095954	
2830.753728	-0.093670	
2830.755265	-0.089625	
2830.756752	-0.087196	
2830.758291	-0.083994	
2830.759785	-0.080896	
2830.761328	-0.078777	
2830.762831	-0.076569	
2830.764350	-0.073512	
2830.765874	-0.071735	
2830.767380	-0.070064	
2830.768900	-0.068323	
2830.770382	-0.066962	
2830.771932	-0.064867	
2830.773419	-0.064057	
2830.774957	-0.062458	
2830.776443	-0.061310	
2830.777982	-0.060194	
2830.779485	-0.059969	
2830.781020	-0.058881	
2830.782529	-0.058788	
2830.784055	-0.057958	
2830.785575	-0.058051	
2830.787065	-0.058148	
2830.788614	-0.058047	
2830.790114	-0.058063	
2830.791664	-0.057818	
2830.793159	-0.058188	
2830.794686	-0.058595	
2830.796185	-0.058688	
2830.797718	-0.058994	
2830.799234	-0.060081	
2830.800754	-0.059892	
2830.802276	-0.061282	
2830.803760	-0.061846	
2830.805295	-0.062514	
2830.806782	-0.062716	
2830.808328	-0.063066	
2830.809815	-0.063896	
2830.811352	-0.063727	
2830.812843	-0.064404	
2830.814384	-0.064907	
2830.815896	-0.065669	
2830.817421	-0.065451	
2830.818933	-0.066241	
2830.820419	-0.067212	
2830.821976	-0.066934	
2830.823467	-0.066950	
2830.825012	-0.066486	
2830.826502	-0.066345	
2830.828045	-0.065786	
2830.829532	-0.065858	
2830.831061	-0.065036	
2830.832566	-0.064799	
2830.834096	-0.064263	
2830.835608	-0.063808	
2830.837092	-0.063602	
2830.838635	-0.062386	
2830.840129	-0.061677	
2830.841669	-0.060234	
2830.843158	-0.059550	
2830.844699	-0.058240	
2830.846188	-0.056778	
2830.847709	-0.055695	
2830.849219	-0.054317	
2830.850738	-0.052468	
2830.852254	-0.051485	
2830.853735	-0.049995	
2830.855289	-0.048291	
2830.856778	-0.046639	
2830.858317	-0.044774	
2830.859803	-0.043388	
2830.861332	-0.041612	
2830.862822	-0.040016	
2830.864347	-0.037889	
2830.865855	-0.036826	
2830.867377	-0.034836	
2830.868892	-0.033781	
2830.870375	-0.032435	
2830.871927	-0.030030	
2830.873417	-0.029071	
2830.874963	-0.026574	
2830.876458	-0.025450	
2830.877997	-0.023694	
2830.879493	-0.022300	
2830.881015	-0.020511	
2830.882532	-0.019267	
2830.884056	-0.018034	
2830.885581	-0.017136	
2830.887061	-0.015919	
2830.888611	-0.014622	
2830.890100	-0.013369	
2830.891631	-0.011822	
2830.893119	-0.011081	
2830.894660	-0.009743	
2830.896151	-0.008479	
2830.897687	-0.007455	
2830.899194	-0.006561	
2830.900716	-0.005780	
2830.902226	-0.005357	
2830.903721	-0.004720	
2830.905271	-0.003890	
2830.906760	-0.003757	
2830.908304	-0.002758	
2830.909798	-0.002984	
2830.911321	-0.001977	
2830.912824	-0.002166	
2830.914342	-0.001485	
2830.915859	-0.002154	
2830.917385	-0.002239	
2830.918907	-0.002549	
2830.920389	-0.002734	
2830.921939	-0.002416	
2830.923428	-0.003411	
2830.924965	-0.003246	
2830.926481	-0.003959	
2830.927968	-0.004414	
2830.929502	-0.004499	
2830.931017	-0.005119	
2830.932547	-0.006376	
2830.934040	-0.007053	
2830.935563	-0.008330	
2830.937059	-0.008974	
2830.938590	-0.009506	
2830.940088	-0.010384	
2830.941601	-0.010565	
2830.943126	-0.011887	
2830.944615	-0.012193	
2830.946168	-0.012769	
2830.947655	-0.013433	
2830.949198	-0.014336	
2830.950680	-0.014948	
2830.952225	-0.015987	
2830.953708	-0.016213	
2830.955236	-0.016995	
2830.956729	-0.017377	
2830.958248	-0.017401	
2830.959765	-0.017981	
2830.961248	-0.018078	
2830.962806	-0.018062	
2830.964292	-0.017993	
2830.965845	-0.018203	
2830.967321	-0.018433	
2830.968866	-0.018139	
2830.970354	-0.018388	
2830.971885	-0.017824	
2830.973378	-0.017937	
2830.974907	-0.017244	
2830.976410	-0.016862	
2830.977934	-0.015863	
2830.979445	-0.015295	
2830.980929	-0.014308	
2830.982473	-0.014058	
2830.983953	-0.013474	
2830.985496	-0.012829	
2830.986976	-0.011943	
2830.988521	-0.010884	
2830.990015	-0.010098	
2830.991529	-0.008700	
2830.993033	-0.007870	
2830.994549	-0.006142	
2830.996061	-0.005199	
2830.997540	-0.003721	
2830.999092	-0.002742	
2831.000576	-0.001812	
2831.002134	-0.000635	
2831.003617	0.000283	
2831.005157	0.001588	
2831.006642	0.002426	
2831.008174	0.004110	
2831.009663	0.004642	
2831.011190	0.006217	
2831.012710	0.007615	
2831.014193	0.008368	
2831.015742	0.009278	
2831.017232	0.010720	
2831.018770	0.011220	
2831.020254	0.012634	
2831.021787	0.013874	
2831.023274	0.014648	
2831.024813	0.015526	
2831.026298	0.016457	
2831.027818	0.018004	
2831.029334	0.018426	
2831.030846	0.019889	
2831.032372	0.020296	
2831.033865	0.020840	
2831.035404	0.021661	
2831.036890	0.022785	
2831.038445	0.022962	
2831.039928	0.023434	
2831.041460	0.024505	
2831.042950	0.024078	
2831.044485	0.025109	
2831.045986	0.025331	
2831.047509	0.025996	
2831.049020	0.025730	
2831.050511	0.025835	
2831.052055	0.025395	
2831.053543	0.025561	
2831.055093	0.025565	
2831.056585	0.025355	
2831.058131	0.025275	
2831.059622	0.024550	
2831.061151	0.024654	
2831.062667	0.024558	
2831.064179	0.023990	
2831.065693	0.023377	
2831.067182	0.022515	
2831.068721	0.021689	
2831.070207	0.021532	
2831.071748	0.021001	
2831.073236	0.020163	
2831.074771	0.019651	
2831.076258	0.018890	
2831.077791	0.018439	
2831.079293	0.017826	
2831.080815	0.017407	
2831.082333	0.016573	
2831.083820	0.015707	
2831.085359	0.014986	
2831.086847	0.014821	
2831.088387	0.014600	
2831.089873	0.014056	
2831.091406	0.013907	
2831.092899	0.013560	
2831.094428	0.013649	
2831.095944	0.013532	
2831.097452	0.013564	
2831.098960	0.013528	
2831.100439	0.013234	
2831.101987	0.013435	
2831.103475	0.013822	
2831.105025	0.014193	
2831.106508	0.014358	
2831.108049	0.015317	
2831.109534	0.015949	
2831.111073	0.017101	
2831.112588	0.017923	
2831.114108	0.018789	
2831.115622	0.019865	
2831.117111	0.020449	
2831.118647	0.021726	
2831.120140	0.022894	
2831.121698	0.024368	
2831.123188	0.025190	
2831.124727	0.027712	
2831.126226	0.028804	
2831.127749	0.030850	
2831.129261	0.032264	
2831.130786	0.035486	
2831.132304	0.038822	
2831.133785	0.039680	
2831.135336	0.041529	
2831.136826	0.043724	
2831.138369	0.045835	
2831.139857	0.047660	
2831.141397	0.050053	
2831.142885	0.051205	
2831.144407	0.054303	
2831.145934	0.056265	
2831.147448	0.058923	
2831.148969	0.060853	
2831.150447	0.062730	
2831.152004	0.064901	
2831.153499	0.066460	
2831.155051	0.069228	
2831.156536	0.071286	
2831.158070	0.073691	
2831.159555	0.074980	
2831.161091	0.077776	
2831.162595	0.080261	
2831.164121	0.082336	
2831.165632	0.083802	
2831.167116	0.085276	
2831.168651	0.087186	
2831.170141	0.089458	
2831.171676	0.090888	
2831.173162	0.091355	
2831.174695	0.093422	
2831.176183	0.094807	
2831.177707	0.097373	
2831.179220	0.097740	
2831.180730	0.098804	
2831.182253	0.099964	
2831.183733	0.100983	
2831.185275	0.101897	
2831.186757	0.102252	
2831.188296	0.103396	
2831.189784	0.103492	
2831.191322	0.104242	
2831.192810	0.104371	
2831.194346	0.105470	
2831.195847	0.105511	
2831.197368	0.105438	
2831.198876	0.106204	
2831.200360	0.104890	
2831.201909	0.104673	
2831.203401	0.105297	
2831.204956	0.104765	
2831.206451	0.104733	
2831.207989	0.104915	
2831.209480	0.104226	
2831.211011	0.104653	
2831.212528	0.104669	
2831.214042	0.104572	
2831.215570	0.104717	
2831.217052	0.102969	
2831.218602	0.103323	
2831.220086	0.103537	
2831.221626	0.103416	
2831.223110	0.103392	
2831.224645	0.104254	
2831.226134	0.104459	
2831.227665	0.104955	
2831.229178	0.105583	
2831.230700	0.106913	
2831.232214	0.106953	
2831.233701	0.107626	
2831.235234	0.109193	
2831.236723	0.110453	
2831.238274	0.111444	
2831.239787	0.113338	
2831.241270	0.115086	
2831.242814	0.116581	
2831.244321	0.119368	
2831.245847	0.121773	
2831.247334	0.123727	
2831.248868	0.126414	
2831.250369	0.128863	
2831.251896	0.131244	
2831.253401	0.134362	
2831.254920	0.136924	
2831.256452	0.139868	
2831.257944	0.143401	
2831.259472	0.146374	
2831.260980	0.150974	
2831.262520	0.155123	
2831.264010	0.158455	
2831.265551	0.162411	
2831.267034	0.166069	
2831.268564	0.169726	
2831.270069	0.173750	
2831.271585	0.177481	
2831.273111	0.180997	
2831.274602	0.186416	
2831.276141	0.189836	
2831.277650	0.194174	
2831.279183	0.198758	
2831.280661	0.202903	
2831.282209	0.207488	
2831.283703	0.211121	
2831.285229	0.214686	
2831.286728	0.219190	
2831.288245	0.222457	
2831.289761	0.225398	
2831.291290	0.229253	
2831.292787	0.233325	
2831.294285	0.235811	
2831.295840	0.239215	
2831.297324	0.242325	
2831.298883	0.245310	
2831.300368	0.247537	
2831.301903	0.249257	
2831.303386	0.251630	
2831.304916	0.252907	
2831.306409	0.254365	
2831.307944	0.256093	
2831.309458	0.256818	
2831.310956	0.257902	
2831.312483	0.258446	
2831.313965	0.258817	
2831.315503	0.258522	
2831.316986	0.257572	
2831.318524	0.257697	
2831.320016	0.257451	
2831.321534	0.256843	
2831.323031	0.254607	
2831.324559	0.254055	
2831.326078	0.252806	
2831.327555	0.251743	
2831.329100	0.250361	
2831.330589	0.248536	
2831.332142	0.246417	
2831.333621	0.244323	
2831.335162	0.242329	
2831.336649	0.240834	
2831.338190	0.239195	
2831.339679	0.237273	
2831.341207	0.235452	
2831.342713	0.233672	
2831.344242	0.231766	
2831.345751	0.229772	
2831.347267	0.228769	
2831.348782	0.226723	
2831.350266	0.224588	
2831.351817	0.223077	
2831.353305	0.222223	
2831.354850	0.220499	
2831.356344	0.219089	
2831.357869	0.217800	
2831.359384	0.216237	
2831.360899	0.216124	
2831.362422	0.214678	
2831.363934	0.213607	
2831.365452	0.213305	
2831.366932	0.211315	
2831.368470	0.211206	
2831.369955	0.210356	
2831.371493	0.209200	
2831.372978	0.208934	
2831.374519	0.209687	
2831.376025	0.207818	
2831.377548	0.208829	
2831.379051	0.208454	
2831.380561	0.208479	
2831.382095	0.208007	
2831.383583	0.207737	
2831.385124	0.207709	
2831.386617	0.207254	
2831.388157	0.206871	
2831.389657	0.206311	
2831.391175	0.207774	
2831.392691	0.207786	
2831.394205	0.207774	
2831.395728	0.207830	
2831.397243	0.207331	
2831.398764	0.207830	
2831.400246	0.207121	
2831.401783	0.207065	
2831.403267	0.206948	
2831.404799	0.205631	
2831.406289	0.204076	
2831.407823	0.203790	
2831.409325	0.203447	
2831.410845	0.202541	
2831.412353	0.200797	
2831.413867	0.199520	
2831.415391	0.196974	
